#  Sbc SED of Coleman, Wu, and Weedman (1980)
#  Extended below 1400 A and beyond 10000 A by
#  Bolzonella, Miralles, and Pello (2000) using evolutionary models
#  of Bruzual and Charlot (1993)
#
#  Obtained from ZPHOT code at
#  'http://webast.ast.obs-mip.fr/hyperz/zphot_src_1.1.tar.gz'
#
#  Truncated to wavelengths less than 12000 Angstroms, and thinned by
#  galsim.utilities.thin_tabulated_values to a relative error of 1.e-5
#
#  Angstroms     Flux/A
#
     128.00       5.50902
     223.00      20.16396
     284.00      31.04140
     348.00      32.44732
     375.00      61.26883
     385.00      50.16941
     405.00      87.98145
     430.00      74.95813
     451.00      86.64952
     470.00      76.47505
     490.00      71.07333
     500.00      86.72352
     506.00      73.07122
     512.00     123.20360
     550.00      84.94761
     570.00     120.57680
     590.00     116.43300
     610.00      94.38213
     620.00     116.95100
     650.00     111.95620
     675.00     117.76490
     685.00      98.59990
     695.00     114.36110
     705.00      90.01635
     716.00     115.50800
     755.00     107.18350
     775.00     105.18560
     815.00     101.81870
     825.00     102.63270
     835.00      79.39790
     855.00      95.49207
     895.00      96.30602
     915.00      95.89905
     935.00     405.49900
     945.00     578.65010
     955.00     694.82410
     965.00     754.39100
     975.00     228.46320
     985.00     584.56980
     995.00     575.69020
    1005.00     757.72080
    1015.00     754.76100
    1025.00     452.11660
    1035.00     603.80880
    1045.00     915.33260
    1055.00     875.00480
    1065.00     709.99330
    1075.00     797.67880
    1085.00     667.44550
    1095.00     810.99800
    1115.00     738.48190
    1125.00     645.24660
    1135.00     785.83940
    1145.00     722.20270
    1165.00     735.52200
    1175.00     491.33460
    1185.00     693.34420
    1195.00     538.69210
    1215.00     325.58320
    1225.00     513.16350
    1235.00     675.95500
    1245.00     712.58310
    1255.00     680.39480
    1265.00     616.01820
    1275.00     734.78200
    1285.00     753.28110
    1295.00     616.38810
    1305.00     608.98850
    1315.00     722.94260
    1325.00     685.94450
    1335.00     620.45790
    1345.00     699.26390
    1355.00     673.73520
    1365.00     607.87860
    1385.00     616.38810
    1395.00     497.25430
    1405.00     501.69410
    1415.00     560.89110
    1435.00     561.26100
    1447.00     584.19980
    1465.00     520.19310
    1495.00     522.78300
    1505.00     491.70460
    1512.00     441.38720
    1517.00     465.43590
    1525.00     452.11660
    1535.00     388.10990
    1555.00     377.01050
    1585.00     435.46750
    1615.00     422.51820
    1625.00     403.64910
    1645.00     427.32790
    1655.00     401.05930
    1665.00     425.84800
    1672.00     382.56020
    1677.00     431.02770
    1685.00     438.42730
    1715.00     372.57070
    1725.00     366.61400
    1735.00     387.00000
    1745.00     376.64050
    1755.00     393.28970
    1765.00     365.43010
    1785.00     371.09080
    1800.00     387.00000
    1900.00     390.00000
    2000.00     379.00000
    2100.00     364.00000
    2200.00     353.00000
    2400.00     346.00000
    2800.00     348.00000
    2940.00     357.00000
    3060.00     374.00000
    3140.00     392.00000
    3220.00     417.00000
    3300.00     449.00000
    3380.00     490.00000
    3500.00     558.00000
    3540.00     597.00000
    3580.00     577.00000
    3620.00     563.00000
    3660.00     599.00000
    3700.00     676.00000
    3740.00     706.00000
    3780.00     682.00000
    3820.00     708.00000
    3860.00     764.00000
    3900.00     778.00000
    3940.00     760.00000
    3980.00     813.00000
    4020.00     920.00000
    4060.00     924.00000
    4100.00     880.00000
    4140.00     903.00000
    4180.00     938.00000
    4220.00     947.00000
    4260.00     927.00000
    4300.00     896.00000
    4340.00     896.00000
    4420.00     969.00000
    4460.00     997.00000
    4500.00    1017.00000
    4540.00    1016.00000
    4580.00    1005.00000
    4620.00    1013.00000
    4660.00    1008.00000
    4700.00     994.00000
    4740.00    1013.00000
    4780.00    1006.00000
    4820.00     984.00000
    4860.00     980.00000
    4900.00     967.00000
    4940.00     966.00000
    4980.00     984.00000
    5020.00     977.00000
    5060.00     942.00000
    5100.00     945.00000
    5180.00     917.00000
    5220.00     928.00000
    5260.00     920.00000
    5340.00     886.00000
    5380.00     990.00000
    5420.00     941.00000
    5460.00     961.00000
    5500.00     945.00000
    5540.00     961.00000
    5580.00     956.00000
    5700.00     926.00000
    5820.00     903.00000
    5940.00     886.00000
    6100.00     876.00000
    6460.00     858.00000
    6780.00     842.00000
    7100.00     828.00000
    7260.00     823.00000
    7460.00     816.00000
    7660.00     809.00000
    7940.00     800.00000
    8100.00     794.00000
    8500.00     783.00000
    8900.00     774.00000
    9200.00     767.00000
    9600.00     759.00000
   10000.00     753.00000
   10075.00     738.48250
   10125.00     749.12300
   10175.00     739.81260
   10275.00     741.73380
   10325.00     730.94550
   10375.00     724.88630
   10425.00     726.36410
   10475.00     715.72360
   10525.00     710.40340
   10575.00     697.39830
   10675.00     682.02860
   10725.00     684.39320
   10775.00     678.03840
   10825.00     667.10230
   10925.00     656.75730
   10975.00     649.07250
   11025.00     646.11680
   11075.00     637.24970
   11175.00     628.82590
   11225.00     627.93920
   11275.00     619.51550
   11375.00     613.16070
   11425.00     606.51040
   11475.00     612.12620
   11525.00     609.31830
   11625.00     592.47080
   11725.00     592.91420
   11775.00     580.79580
   11875.00     565.27830
   11925.00     572.81540
   11975.00     553.89890
   12025.00     563.20930
   12075.00     556.85460
   12175.00     557.00230
   12325.00     543.70170
   12425.00     534.53900
   12625.00     521.09050
   12675.00     515.77030
   12775.00     514.29240
   12825.00     494.78480
   12875.00     504.09520
   12925.00     498.18380
   12975.00     502.46960
   13025.00     495.37590
   13075.00     496.26260
   13125.00     486.50880
   13225.00     483.55310
   13275.00     475.12940
   13325.00     476.16380
   13375.00     470.84360
   13425.00     471.58250
   13525.00     464.19320
   13575.00     456.21290
   13675.00     455.91730
   13825.00     455.32610
   13875.00     450.44920
   13925.00     430.20270
   14025.00     422.37000
   14075.00     425.32570
   14125.00     420.15330
   14175.00     423.55230
   14275.00     412.17290
   14325.00     419.85770
   14375.00     421.18780
   14425.00     410.99060
   14475.00     418.82320
   14525.00     414.09410
   14570.00     416.45860
   14620.00     406.55700
   14725.00     400.20230
   14825.00     404.04470
   14875.00     400.64560
   14925.00     409.51280
   15025.00     401.38460
   15075.00     401.08900
   15125.00     407.59150
   15275.00     410.69500
   15425.00     405.37480
   15525.00     402.27120
   15575.00     388.82280
   15625.00     391.92630
   15675.00     390.30070
   15725.00     399.31560
   15775.00     374.04430
   15875.00     372.56640
   15925.00     385.12820
   15975.00     376.40890
   16050.00     373.89650
   16150.00     379.95570
   16250.00     367.54170
   16350.00     380.99020
   16450.00     360.74360
   16550.00     373.45310
   16650.00     361.18700
   16750.00     362.66480
   16850.00     353.50210
   16950.00     356.45790
   17050.00     349.21640
   17250.00     338.42810
   17350.00     327.19640
   17450.00     325.57080
   17650.00     313.89570
   17750.00     305.91530
   17850.00     302.07290
   18050.00     287.44220
   18350.00     274.43710
   18450.00     269.11680
   18550.00     266.45670
   18750.00     253.74710
   18850.00     252.41710
   18950.00     243.55000
   19050.00     245.76680
   19250.00     237.49080
   19450.00     225.22460
   19550.00     224.48570
   19750.00     214.43630
   19950.00     209.41160
   20150.00     205.56920
   20250.00     200.39670
   20450.00     197.73660
   20650.00     191.52960
   20850.00     186.94830
   20950.00     183.69700
   21050.00     183.10580
   21250.00     177.49000
   21450.00     173.79540
   21750.00     165.66720
   21950.00     162.12030
   22050.00     158.27790
